# CPMG cps data
# Echo time[s] = 0.002, point = 999
#         time/s             real
           0.002          810.754
           0.004          694.388
           0.006          589.836
           0.008          515.479
            0.01          447.298
           0.012          393.103
           0.014          339.394
           0.016          310.984
           0.018          275.709
            0.02          242.875
           0.022          222.867
           0.024           202.91
           0.026          184.299
           0.028          167.017
            0.03          150.385
           0.032          146.061
           0.034          133.808
           0.036           122.65
           0.038          118.366
            0.04          109.952
           0.042          108.344
           0.044          107.557
           0.046          95.0954
           0.048          95.0329
            0.05          91.7218
           0.052          91.0042
           0.054            82.58
           0.056          79.6965
           0.058          77.1599
            0.06          78.0603
           0.062          78.2601
           0.064          72.1042
           0.066          68.1444
           0.068          65.7225
            0.07          62.4505
           0.072          68.1389
           0.074          63.9397
           0.076          65.5756
           0.078          62.9943
            0.08          62.4124
           0.082          61.0012
           0.084          60.3997
           0.086          61.9623
           0.088          57.2174
            0.09          57.5136
           0.092          61.5886
           0.094          50.5984
           0.096          55.5508
           0.098          48.2864
             0.1          48.0633
           0.102          47.7495
           0.104          50.6349
           0.106          49.9019
           0.108            56.25
            0.11          50.0351
           0.112          51.2652
           0.114          46.1739
           0.116          48.0172
           0.118          45.2244
            0.12          46.0491
           0.122          43.9389
           0.124          46.3765
           0.126          43.3604
           0.128          41.8976
            0.13          42.3123
           0.132           42.392
           0.134          44.4601
           0.136          41.7517
           0.138          44.1257
            0.14          39.1346
           0.142          37.0475
           0.144          40.2595
           0.146          40.5605
           0.148           43.546
            0.15          38.0403
           0.152          38.1449
           0.154          36.9808
           0.156          39.7626
           0.158          36.5199
            0.16          37.0407
           0.162          44.0144
           0.164          39.1152
           0.166           38.135
           0.168          34.9645
            0.17          33.9029
           0.172          35.3995
           0.174          37.2603
           0.176          37.0103
           0.178          41.0354
            0.18          35.2609
           0.182          34.2612
           0.184          35.7764
           0.186          38.6986
           0.188          34.1369
            0.19          36.8241
           0.192          35.6357
           0.194          35.7509
           0.196          35.8857
           0.198          35.0722
             0.2          32.7037
           0.202          31.0891
           0.204          32.6444
           0.206          37.3706
           0.208          33.2502
            0.21          36.5214
           0.212          30.7251
           0.214          35.3553
           0.216          39.0128
           0.218          36.7848
            0.22          34.6302
           0.222           34.761
           0.224          36.3122
           0.226          33.4145
           0.228          32.4531
            0.23          29.4518
           0.232          34.2475
           0.234          33.7018
           0.236          34.4828
           0.238          26.8762
            0.24          37.1662
           0.242          31.9034
           0.244          29.2032
           0.246          32.4292
           0.248          30.9056
            0.25          28.8536
           0.252           32.876
           0.254          34.6901
           0.256          30.9538
           0.258          31.8387
            0.26          32.9358
           0.262          27.1529
           0.264          36.9514
           0.266          29.9126
           0.268           28.734
            0.27          27.3796
           0.272          27.0026
           0.274           31.645
           0.276          30.1253
           0.278          28.2337
            0.28          31.0727
           0.282          26.7687
           0.284          31.3653
           0.286          30.0752
           0.288          33.2725
            0.29          29.9693
           0.292          28.5605
           0.294          28.5003
           0.296            31.53
           0.298          28.8861
             0.3          28.4652
           0.302          31.2012
           0.304          26.1612
           0.306           35.133
           0.308           31.254
            0.31          30.4377
           0.312          27.6499
           0.314          31.5716
           0.316          27.1736
           0.318          28.6948
            0.32          29.2118
           0.322          34.4413
           0.324          32.5125
           0.326          26.8776
           0.328          27.6295
            0.33          30.8689
           0.332            28.26
           0.334            27.75
           0.336          32.9436
           0.338          30.1892
            0.34          29.3471
           0.342           27.938
           0.344          27.7066
           0.346          29.1815
           0.348          24.6811
            0.35          25.0003
           0.352          25.7609
           0.354          30.6128
           0.356          33.1288
           0.358          28.8774
            0.36          32.9016
           0.362          26.8156
           0.364          25.3778
           0.366          26.0846
           0.368          31.7141
            0.37          28.3794
           0.372          25.6789
           0.374          26.3584
           0.376          29.9794
           0.378          28.5274
            0.38          30.4328
           0.382          28.4545
           0.384          27.9072
           0.386          27.8686
           0.388          27.1986
            0.39          24.8759
           0.392          27.0567
           0.394          30.1416
           0.396          25.3947
           0.398          29.6569
             0.4          26.2217
           0.402          26.3824
           0.404          28.6577
           0.406          27.9724
           0.408          25.8943
            0.41          23.5747
           0.412          25.1784
           0.414          25.2528
           0.416          26.6977
           0.418           21.375
            0.42          28.6097
           0.422          26.2797
           0.424          27.1273
           0.426          23.7973
           0.428          26.6745
            0.43          25.9543
           0.432          26.0048
           0.434           30.501
           0.436          23.4154
           0.438          24.3958
            0.44          22.2924
           0.442          26.2309
           0.444          23.2648
           0.446          26.6276
           0.448          25.7709
            0.45          28.4363
           0.452            26.75
           0.454          25.5884
           0.456           23.665
           0.458          24.1457
            0.46          25.8276
           0.462          23.0166
           0.464           24.683
           0.466          27.5097
           0.468          25.7721
            0.47          30.2286
           0.472          26.1573
           0.474          27.3004
           0.476          23.4714
           0.478          25.0711
            0.48          23.4231
           0.482          28.0627
           0.484          25.5077
           0.486           25.237
           0.488          23.3241
            0.49          25.3022
           0.492          23.7362
           0.494            25.12
           0.496          20.5278
           0.498          23.3803
             0.5          21.4115
           0.502          25.6765
           0.504          26.0846
           0.506             22.5
           0.508          27.6275
            0.51          21.7417
           0.512          26.8985
           0.514          27.9131
           0.516          26.1827
           0.518          23.5219
            0.52          26.0075
           0.522          24.8778
           0.524          24.6148
           0.526          24.8888
           0.528          20.5597
            0.53          28.1475
           0.532          24.2513
           0.534          25.7609
           0.536          27.2766
           0.538          26.9041
            0.54          24.1328
           0.542          21.8496
           0.544          25.8994
           0.546          24.7815
           0.548          24.2297
            0.55          21.4276
           0.552          23.7513
           0.554          20.0016
           0.556          24.7516
           0.558          20.9706
            0.56          23.8779
           0.562          26.0078
           0.564          19.3911
           0.566          25.3587
           0.568          22.0128
            0.57          20.7515
           0.572          25.8312
           0.574          24.4211
           0.576          23.7237
           0.578          26.0342
            0.58          26.1492
           0.582          26.3762
           0.584          26.1635
           0.586          19.7899
           0.588          21.2798
            0.59          24.1253
           0.592          24.5156
           0.594          20.6795
           0.596          22.4757
           0.598          27.3427
             0.6          24.3108
           0.602          21.1487
           0.604          20.4133
           0.606          26.8994
           0.608          23.0411
            0.61          23.5053
           0.612          19.7998
           0.614          27.1123
           0.616          22.5534
           0.618           19.851
            0.62          22.1532
           0.622          21.6308
           0.624          22.3005
           0.626          19.7029
           0.628          20.3731
            0.63          21.3823
           0.632          20.5061
           0.634          21.5878
           0.636           22.861
           0.638           25.045
            0.64          24.8763
           0.642          22.6336
           0.644          23.2584
           0.646          23.0397
           0.648          22.4169
            0.65          23.0054
           0.652          24.9562
           0.654          23.8685
           0.656          20.7342
           0.658          18.0069
            0.66          21.2401
           0.662          22.2532
           0.664          22.1603
           0.666          22.8873
           0.668          26.0243
            0.67          24.3865
           0.672          23.3977
           0.674          22.6674
           0.676          22.1677
           0.678          19.2305
            0.68          23.1098
           0.682          23.8868
           0.684           26.063
           0.686          19.5324
           0.688          16.2298
            0.69           19.851
           0.692          19.5196
           0.694          25.4966
           0.696          17.5004
           0.698          22.0907
             0.7          17.0156
           0.702          21.3984
           0.704          20.3888
           0.706           24.508
           0.708          20.9169
            0.71          20.4855
           0.712          21.4571
           0.714          19.8167
           0.716          21.8106
           0.718           23.511
            0.72          24.3599
           0.722          20.8844
           0.724          20.5034
           0.726          19.1328
           0.728          23.9694
            0.73          19.5436
           0.732           20.622
           0.734          23.0573
           0.736          17.7491
           0.738          21.4767
            0.74          23.8779
           0.742          23.1736
           0.744          22.0103
           0.746          22.3187
           0.748          21.7676
            0.75          23.3352
           0.752          20.7515
           0.754          20.2515
           0.756          22.1941
           0.758          22.8736
            0.76          18.4141
           0.762          21.3765
           0.764          21.3326
           0.766          21.1874
           0.768          20.8806
            0.77          24.6811
           0.772          18.8887
           0.774          16.7617
           0.776          18.3882
           0.778             16.5
            0.78          25.1126
           0.782          21.6449
           0.784          23.3469
           0.786            19.52
           0.788          19.8069
            0.79          19.2256
           0.792           23.378
           0.794          20.2427
           0.796          19.0004
           0.798          17.1255
             0.8          19.5296
           0.802          15.9516
           0.804          19.4117
           0.806           14.885
           0.808          19.9883
            0.81          21.1926
           0.812          19.6505
           0.814          20.4855
           0.816          22.3973
           0.818          20.1498
            0.82          20.8784
           0.822          23.4124
           0.824          20.5061
           0.826          20.4397
           0.828          23.4154
            0.83          17.9378
           0.832          20.3255
           0.834          18.7621
           0.836          19.4153
           0.838          20.1347
            0.84          22.7751
           0.842          16.0337
           0.844           18.235
           0.846          18.2846
           0.848          17.0156
            0.85           16.156
           0.852          23.3914
           0.854          23.8907
           0.856          22.1254
           0.858          17.3858
            0.86          16.8008
           0.862           19.145
           0.864          19.8388
           0.866          16.2735
           0.868          14.5484
            0.87           17.397
           0.872          17.9187
           0.874          19.4695
           0.876          17.4302
           0.878          19.0263
            0.88          21.7629
           0.882          23.2983
           0.884          24.2297
           0.886          17.9239
           0.888          20.2596
            0.89          12.1617
           0.892           14.109
           0.894          22.5866
           0.896          20.1994
           0.898          20.2639
             0.9          19.3427
           0.902          18.5017
           0.904           17.882
           0.906          18.3427
           0.908          15.4606
            0.91          20.5746
           0.912           21.225
           0.914           14.285
           0.916          19.2199
           0.918          20.2955
            0.92          19.0201
           0.922           19.886
           0.924          21.2735
           0.926          16.8866
           0.928          18.5443
            0.93          19.7998
           0.932          13.4629
           0.934           20.866
           0.936          12.0649
           0.938          19.3043
            0.94          18.4704
           0.942          16.2812
           0.944          9.90344
           0.946          16.0078
           0.948          17.0225
            0.95          17.4078
           0.952          17.6998
           0.954          18.2607
           0.956          22.9704
           0.958          18.2217
            0.96          17.2505
           0.962           13.925
           0.964          20.5198
           0.966          17.3961
           0.968          16.4967
            0.97          17.3754
           0.972          16.6043
           0.974           15.212
           0.976          12.6219
           0.978          16.2259
            0.98          20.0035
           0.982          16.1574
           0.984          13.7959
           0.986          14.4309
           0.988          15.8829
            0.99          15.0042
           0.992          18.6065
           0.994          18.0434
           0.996          20.3785
           0.998          14.6805
               1          13.4222
           1.002          17.8785
           1.004          21.7072
           1.006           17.625
           1.008          16.3793
            1.01          17.2341
           1.012          13.8801
           1.014          15.1791
           1.016          15.5005
           1.018          13.6771
            1.02          19.8167
           1.022          15.9457
           1.024          18.5004
           1.026          19.0763
           1.028          15.3973
            1.03          14.9838
           1.032          15.8755
           1.034          16.9945
           1.036          15.7525
           1.038          18.1267
            1.04          18.3137
           1.042          19.2504
           1.044          19.0927
           1.046          13.4222
           1.048           10.672
            1.05          13.7534
           1.052          15.5045
           1.054          12.2907
           1.056          22.2043
           1.058          14.0273
            1.06          15.8927
           1.062          18.1418
           1.064          13.4455
           1.066          21.4454
           1.068          20.3366
            1.07          20.3765
           1.072          13.8609
           1.074          16.2197
           1.076          15.9344
           1.078          16.9531
            1.08          17.2518
           1.082          18.8564
           1.084          17.3385
           1.086          14.9086
           1.088          19.7895
            1.09           15.013
           1.092           19.404
           1.094          19.0037
           1.096          17.5753
           1.098          16.3081
             1.1          14.3755
           1.102          18.0334
           1.104          15.6649
           1.106           16.331
           1.108          17.1182
            1.11          19.5871
           1.112          14.8813
           1.114          13.7073
           1.116          15.5724
           1.118          11.4489
            1.12          10.8757
           1.122          14.1256
           1.124          20.0472
           1.126          13.4455
           1.128           16.817
            1.13          16.8101
           1.132           18.144
           1.134          16.4022
           1.136          21.6542
           1.138          17.1473
            1.14          17.6693
           1.142          16.9641
           1.144          15.5081
           1.146          14.4935
           1.148          13.4123
            1.15          13.4001
           1.152          16.2812
           1.154          16.0954
           1.156          15.7901
           1.158          17.0427
            1.16          10.3592
           1.162          13.1155
           1.164          16.2543
           1.166          14.0022
           1.168          18.2731
            1.17           16.344
           1.172           16.869
           1.174          9.56066
           1.176           17.221
           1.178          16.1574
            1.18          19.0004
           1.182           16.817
           1.184          16.2889
           1.186           19.433
           1.188          12.4147
            1.19           13.925
           1.192          11.5061
           1.194          16.1095
           1.196          16.3826
           1.198          17.3768
             1.2           13.911
           1.202          14.6932
           1.204          12.7009
           1.206          14.3445
           1.208          15.0691
            1.21          20.6436
           1.212          19.0763
           1.214          14.5774
           1.216           12.375
           1.218          13.0054
            1.22          15.5005
           1.222          12.8695
           1.224          17.6321
           1.226            13.41
           1.228          17.0853
            1.23          18.4175
           1.232          16.1753
           1.234          8.45022
           1.236          12.3269
           1.238          17.9487
            1.24          21.6308
           1.242          11.6324
           1.244           13.006
           1.246          16.0103
           1.248          12.7727
            1.25          15.0333
           1.252           15.657
           1.254          16.3191
           1.256          15.8868
           1.258          12.3098
            1.26           15.273
           1.262          12.7678
           1.264          14.6127
           1.266             14.2
           1.268          14.8261
            1.27          14.5022
           1.272          12.8239
           1.274          16.7915
           1.276          14.6591
           1.278          16.7169
            1.28          10.2774
           1.282          15.4702
           1.284          13.7534
           1.286          12.5356
           1.288          13.3849
            1.29          16.6227
           1.292           11.195
           1.294          13.7073
           1.296          13.7704
           1.298          9.54021
             1.3          19.3363
           1.302          11.3033
           1.304          14.7691
           1.306          16.7542
           1.308          12.2793
            1.31          16.7449
           1.312          16.8935
           1.314          12.7475
           1.316          12.2907
           1.318          17.7781
            1.32           9.7532
           1.322          17.7346
           1.324          15.9344
           1.326          14.6591
           1.328          13.3165
            1.33          18.4704
           1.332          13.4222
           1.334          13.1351
           1.336           16.002
           1.338          18.6355
            1.34          16.5303
           1.342          15.3958
           1.344          12.8902
           1.346          12.6256
           1.348          8.64038
            1.35           13.875
           1.352          15.5975
           1.354          13.6296
           1.356          12.8531
           1.358           13.625
            1.36          16.2543
           1.362          13.3258
           1.364          12.0059
           1.366          12.7525
           1.368          13.1399
            1.37          12.8902
           1.372          13.6851
           1.374          17.3047
           1.376          17.1706
           1.378          16.5076
            1.38          17.7174
           1.382           14.034
           1.384          12.0007
           1.386          10.7565
           1.388          14.8939
            1.39          13.0294
           1.392          16.7519
           1.394          10.9123
           1.396          9.70261
           1.398           10.152
             1.4          11.9857
           1.402          11.4264
           1.404          16.5043
           1.406          12.1771
           1.408          14.3772
            1.41          13.1541
           1.412          11.1594
           1.414          15.7723
           1.416          13.7352
           1.418          12.8239
            1.42          18.7033
           1.422          12.0007
           1.424           10.933
           1.426            12.38
           1.428          12.9307
            1.43          10.5067
           1.432          12.4512
           1.434          12.1256
           1.436          11.8796
           1.438          17.2663
            1.44          15.1889
           1.442          9.19409
           1.444          11.8914
           1.446           15.377
           1.448          14.9023
            1.45          12.6306
           1.452          18.8003
           1.454          12.3756
           1.456          12.8239
           1.458          6.32579
            1.46          14.9086
           1.462          8.02438
           1.464          13.1844
           1.466          8.59142
           1.468          11.0454
            1.47          9.45797
           1.472          8.48896
           1.474          13.4193
           1.476          9.90344
           1.478          14.6735
            1.48          13.0006
           1.482          7.97359
           1.484          13.5052
           1.486          12.6553
           1.488           17.274
            1.49          15.0442
           1.492          14.3946
           1.494          12.9771
           1.496          14.0451
           1.498          9.63798
             1.5          9.69052
           1.502          11.0574
           1.504          11.4905
           1.506          15.0021
           1.508          10.8116
            1.51          11.4086
           1.512          12.9059
           1.514          9.87579
           1.516           14.284
           1.518          16.5289
            1.52          15.3363
           1.522            14.75
           1.524          14.9175
           1.526          15.3389
           1.528          8.55862
            1.53          11.8757
           1.532          10.1373
           1.534          12.7334
           1.536          13.9849
           1.538          12.0208
            1.54           11.985
           1.542               14
           1.544          8.83883
           1.546          13.6531
           1.548          12.0416
            1.55          11.3812
           1.552          13.0725
           1.554          10.5727
           1.556          10.4021
           1.558          9.46127
            1.56          10.1527
           1.562          13.9026
           1.564          18.6518
           1.566          8.50827
           1.568          7.93824
            1.57            7.625
           1.572          9.65418
           1.574          8.07871
           1.576          11.8855
           1.578          11.0659
            1.58          11.8242
           1.582            11.59
           1.584          8.98001
           1.586          15.0208
           1.588           13.478
            1.59          11.7027
           1.592          14.3293
           1.594          10.6162
           1.596          8.73212
           1.598          10.3758
             1.6          11.1922
           1.602          7.51769
           1.604          13.9042
           1.606          12.7598
           1.608          13.9782
            1.61          10.9445
           1.612          11.1446
           1.614          9.25338
           1.616          11.1194
           1.618          12.8483
            1.62          13.7164
           1.622          10.1527
           1.624          14.5113
           1.626          10.9552
           1.628          11.9504
            1.63          9.02514
           1.632          8.94602
           1.634          11.5109
           1.636           17.629
           1.638          11.7958
            1.64          8.40387
           1.642          10.7333
           1.644           10.387
           1.646          9.63798
           1.648          16.9004
            1.65          8.38339
           1.652          11.5109
           1.654            14.75
           1.656             10.5
           1.658          9.69052
            1.66          10.9152
           1.662          14.9771
           1.664          17.6254
           1.666          13.4635
           1.668          10.8541
            1.67          11.5034
           1.672          9.67681
           1.674          6.77887
           1.676          9.93888
           1.678          15.9883
            1.68          12.9482
           1.682          11.6847
           1.684           12.921
           1.686          8.13941
           1.688          13.1933
            1.69          16.7617
           1.692            8.375
           1.694          12.2907
           1.696          11.1018
           1.698          12.9337
             1.7          8.18917
           1.702          8.74017
           1.704          13.3088
           1.706          11.6579
           1.708          17.1774
            1.71          10.4538
           1.712          10.3206
           1.714          6.65324
           1.716          11.3261
           1.718          10.0382
            1.72          12.2506
           1.722          14.1521
           1.724          10.5067
           1.726          9.51315
           1.728          11.7527
            1.73          12.5356
           1.732           11.972
           1.734          16.2865
           1.736          12.6645
           1.738          14.7759
            1.74          6.52998
           1.742          12.3136
           1.744          7.87897
           1.746          12.1565
           1.748          14.1797
            1.75          13.1369
           1.752          9.91369
           1.754          11.3592
           1.756          6.83854
           1.758          6.26997
            1.76          14.0901
           1.762          12.6769
           1.764           13.911
           1.766          11.8539
           1.768          10.0972
            1.77            8.453
           1.772          10.7449
           1.774          9.34077
           1.776          13.2877
           1.778          15.1621
            1.78          14.3102
           1.782          10.0405
           1.784          5.72549
           1.786          11.8163
           1.788          12.1867
            1.79          14.8071
           1.792           11.676
           1.794          12.9765
           1.796          11.9752
           1.798          11.3447
             1.8          12.1687
           1.802          12.0221
           1.804          15.1348
           1.806           15.377
           1.808          15.6295
            1.81          7.14252
           1.812           8.2623
           1.814          4.92443
           1.816          7.73082
           1.818           12.026
            1.82           13.361
           1.822          9.54021
           1.824          9.84648
           1.826          9.10443
           1.828          9.16856
            1.83          6.43477
           1.832          13.5428
           1.834           9.5074
           1.836          15.3511
           1.838          10.6368
            1.84          3.62715
           1.842          3.57509
           1.844          6.89316
           1.846          12.1269
           1.848          10.2019
            1.85          14.3755
           1.852           13.613
           1.854          12.2181
           1.856          6.77887
           1.858          8.03508
            1.86          12.8695
           1.862          10.7304
           1.864          18.5607
           1.866          18.4704
           1.868          9.56638
            1.87          6.87614
           1.872          8.93116
           1.874          7.69842
           1.876          9.88765
           1.878          12.4906
            1.88          7.72678
           1.882          7.61269
           1.884          6.83854
           1.886          5.79871
           1.888          5.26338
            1.89          11.8618
           1.892          10.6081
           1.894          11.6384
           1.896          13.0444
           1.898          11.1922
             1.9          7.87599
           1.902          3.82631
           1.904          6.76618
           1.906          12.4906
           1.908          10.8721
            1.91          9.70583
           1.912          5.94243
           1.914          5.41554
           1.916          8.26514
           1.918          9.72272
            1.92          14.1956
           1.922          9.27109
           1.924          10.8693
           1.926          3.59905
           1.928          8.72944
            1.93          5.75136
           1.932          9.97653
           1.934          12.1559
           1.936          9.68327
           1.938          10.1196
            1.94          9.35164
           1.942          8.22534
           1.944          10.1304
           1.946          15.2531
           1.948          9.85679
            1.95          15.9712
           1.952          12.6473
           1.954          7.00446
           1.956          6.83854
           1.958          6.43477
            1.96          9.47117
           1.962          14.1449
           1.964          14.6373
           1.966          12.8264
           1.968          11.6793
            1.97           5.0652
           1.972          6.67083
           1.974          10.1996
           1.976          6.52519
           1.978           12.553
            1.98          12.2526
           1.982          11.0807
           1.984          8.19012
           1.986          6.43477
           1.988          6.32579
            1.99            10.25
           1.992           11.075
           1.994            11.59
           1.996          9.00347
           1.998          5.19916
